	time(s)		A copies
   1.0000000e-09   1.0000000e+05
   1.0233166e-09   9.9999998e+04
   1.0471768e-09   9.9999996e+04
   1.0715934e-09   9.9999995e+04
   1.0965793e-09   9.9999993e+04
   1.1221478e-09   9.9999991e+04
   1.1483124e-09   9.9999989e+04
   1.1750871e-09   9.9999987e+04
   1.2024861e-09   9.9999984e+04
   1.2305240e-09   9.9999982e+04
   1.2592156e-09   9.9999980e+04
   1.2885762e-09   9.9999978e+04
   1.3186214e-09   9.9999976e+04
   1.3493671e-09   9.9999973e+04
   1.3808298e-09   9.9999971e+04
   1.4130260e-09   9.9999968e+04
   1.4459729e-09   9.9999966e+04
   1.4796881e-09   9.9999963e+04
   1.5141893e-09   9.9999961e+04
   1.5494950e-09   9.9999958e+04
   1.5856240e-09   9.9999955e+04
   1.6225953e-09   9.9999952e+04
   1.6604287e-09   9.9999949e+04
   1.6991442e-09   9.9999946e+04
   1.7387624e-09   9.9999943e+04
   1.7793044e-09   9.9999940e+04
   1.8207917e-09   9.9999937e+04
   1.8632463e-09   9.9999934e+04
   1.9066908e-09   9.9999930e+04
   1.9511483e-09   9.9999927e+04
   1.9966425e-09   9.9999924e+04
   2.0431973e-09   9.9999920e+04
   2.0908377e-09   9.9999916e+04
   2.1395889e-09   9.9999913e+04
   2.1894768e-09   9.9999909e+04
   2.2405279e-09   9.9999905e+04
   2.2927693e-09   9.9999901e+04
   2.3462288e-09   9.9999897e+04
   2.4009349e-09   9.9999892e+04
   2.4569165e-09   9.9999888e+04
   2.5142033e-09   9.9999884e+04
   2.5728260e-09   9.9999879e+04
   2.6328155e-09   9.9999875e+04
   2.6942037e-09   9.9999870e+04
   2.7570233e-09   9.9999865e+04
   2.8213077e-09   9.9999860e+04
   2.8870909e-09   9.9999855e+04
   2.9544080e-09   9.9999850e+04
   3.0232947e-09   9.9999845e+04
   3.0937876e-09   9.9999839e+04
   3.1659241e-09   9.9999834e+04
   3.2397426e-09   9.9999828e+04
   3.3152823e-09   9.9999822e+04
   3.3925834e-09   9.9999816e+04
   3.4716868e-09   9.9999810e+04
   3.5526347e-09   9.9999804e+04
   3.6354700e-09   9.9999798e+04
   3.7202367e-09   9.9999791e+04
   3.8069799e-09   9.9999785e+04
   3.8957456e-09   9.9999778e+04
   3.9865811e-09   9.9999771e+04
   4.0795345e-09   9.9999764e+04
   4.1746553e-09   9.9999756e+04
   4.2719940e-09   9.9999749e+04
   4.3716022e-09   9.9999741e+04
   4.4735331e-09   9.9999733e+04
   4.5778405e-09   9.9999725e+04
   4.6845801e-09   9.9999717e+04
   4.7938085e-09   9.9999709e+04
   4.9055837e-09   9.9999700e+04
   5.0199651e-09   9.9999691e+04
   5.1370135e-09   9.9999682e+04
   5.2567911e-09   9.9999673e+04
   5.3793615e-09   9.9999664e+04
   5.5047898e-09   9.9999654e+04
   5.6331427e-09   9.9999644e+04
   5.7644883e-09   9.9999634e+04
   5.8988964e-09   9.9999624e+04
   6.0364385e-09   9.9999613e+04
   6.1771876e-09   9.9999603e+04
   6.3212185e-09   9.9999592e+04
   6.4686077e-09   9.9999580e+04
   6.6194335e-09   9.9999569e+04
   6.7737760e-09   9.9999557e+04
   6.9317173e-09   9.9999545e+04
   7.0933412e-09   9.9999532e+04
   7.2587337e-09   9.9999520e+04
   7.4279825e-09   9.9999507e+04
   7.6011776e-09   9.9999493e+04
   7.7784111e-09   9.9999480e+04
   7.9597770e-09   9.9999466e+04
   8.1453718e-09   9.9999452e+04
   8.3352940e-09   9.9999437e+04
   8.5296445e-09   9.9999422e+04
   8.7285266e-09   9.9999407e+04
   8.9320460e-09   9.9999391e+04
   9.1403107e-09   9.9999375e+04
   9.3534315e-09   9.9999359e+04
   9.5715215e-09   9.9999342e+04
   9.7946967e-09   9.9999325e+04
   1.0023075e-08   9.9999307e+04
   1.0256779e-08   9.9999290e+04
   1.0495932e-08   9.9999271e+04
   1.0740662e-08   9.9999252e+04
   1.0991097e-08   9.9999233e+04
   1.1247372e-08   9.9999214e+04
   1.1509622e-08   9.9999193e+04
   1.1777987e-08   9.9999173e+04
   1.2052609e-08   9.9999152e+04
   1.2333635e-08   9.9999130e+04
   1.2621213e-08   9.9999108e+04
   1.2915497e-08   9.9999085e+04
   1.3216642e-08   9.9999062e+04
   1.3524809e-08   9.9999039e+04
   1.3840161e-08   9.9999015e+04
   1.4162866e-08   9.9998990e+04
   1.4493096e-08   9.9998964e+04
   1.4831025e-08   9.9998938e+04
   1.5176834e-08   9.9998912e+04
   1.5530706e-08   9.9998885e+04
   1.5892829e-08   9.9998857e+04
   1.6263395e-08   9.9998829e+04
   1.6642602e-08   9.9998799e+04
   1.7030650e-08   9.9998770e+04
   1.7427747e-08   9.9998739e+04
   1.7834102e-08   9.9998708e+04
   1.8249932e-08   9.9998676e+04
   1.8675458e-08   9.9998643e+04
   1.9110906e-08   9.9998610e+04
   1.9556507e-08   9.9998576e+04
   2.0012498e-08   9.9998541e+04
   2.0479121e-08   9.9998505e+04
   2.0956624e-08   9.9998468e+04
   2.1445261e-08   9.9998431e+04
   2.1945291e-08   9.9998392e+04
   2.2456980e-08   9.9998353e+04
   2.2980600e-08   9.9998313e+04
   2.3516429e-08   9.9998272e+04
   2.4064752e-08   9.9998230e+04
   2.4625859e-08   9.9998187e+04
   2.5200050e-08   9.9998143e+04
   2.5787629e-08   9.9998098e+04
   2.6388908e-08   9.9998051e+04
   2.7004207e-08   9.9998004e+04
   2.7633853e-08   9.9997956e+04
   2.8278180e-08   9.9997906e+04
   2.8937530e-08   9.9997856e+04
   2.9612254e-08   9.9997804e+04
   3.0302711e-08   9.9997751e+04
   3.1009266e-08   9.9997697e+04
   3.1732296e-08   9.9997641e+04
   3.2472185e-08   9.9997585e+04
   3.3229325e-08   9.9997526e+04
   3.4004119e-08   9.9997467e+04
   3.4796979e-08   9.9997406e+04
   3.5608326e-08   9.9997344e+04
   3.6438590e-08   9.9997280e+04
   3.7288213e-08   9.9997215e+04
   3.8157647e-08   9.9997148e+04
   3.9047352e-08   9.9997080e+04
   3.9957803e-08   9.9997010e+04
   4.0889482e-08   9.9996938e+04
   4.1842885e-08   9.9996865e+04
   4.2818518e-08   9.9996790e+04
   4.3816899e-08   9.9996714e+04
   4.4838559e-08   9.9996635e+04
   4.5884041e-08   9.9996555e+04
   4.6953900e-08   9.9996473e+04
   4.8048704e-08   9.9996389e+04
   4.9169036e-08   9.9996303e+04
   5.0315489e-08   9.9996215e+04
   5.1488675e-08   9.9996125e+04
   5.2689214e-08   9.9996033e+04
   5.3917746e-08   9.9995939e+04
   5.5174924e-08   9.9995842e+04
   5.6461414e-08   9.9995743e+04
   5.7777901e-08   9.9995642e+04
   5.9125084e-08   9.9995539e+04
   6.0503679e-08   9.9995433e+04
   6.1914418e-08   9.9995325e+04
   6.3358050e-08   9.9995214e+04
   6.4835343e-08   9.9995101e+04
   6.6347081e-08   9.9994985e+04
   6.7894068e-08   9.9994866e+04
   6.9477125e-08   9.9994745e+04
   7.1097094e-08   9.9994620e+04
   7.2754835e-08   9.9994493e+04
   7.4451229e-08   9.9994363e+04
   7.6187177e-08   9.9994230e+04
   7.7963601e-08   9.9994093e+04
   7.9781446e-08   9.9993954e+04
   8.1641676e-08   9.9993811e+04
   8.3545281e-08   9.9993665e+04
   8.5493271e-08   9.9993515e+04
   8.7486681e-08   9.9993362e+04
   8.9526571e-08   9.9993206e+04
   9.1614025e-08   9.9993046e+04
   9.3750150e-08   9.9992882e+04
   9.5936083e-08   9.9992714e+04
   9.8172984e-08   9.9992542e+04
   1.0046204e-07   9.9992367e+04
   1.0280447e-07   9.9992187e+04
   1.0520152e-07   9.9992003e+04
   1.0765446e-07   9.9991815e+04
   1.1016459e-07   9.9991622e+04
   1.1273326e-07   9.9991425e+04
   1.1536181e-07   9.9991223e+04
   1.1805165e-07   9.9991017e+04
   1.2080421e-07   9.9990806e+04
   1.2362095e-07   9.9990589e+04
   1.2650337e-07   9.9990368e+04
   1.2945300e-07   9.9990142e+04
   1.3247140e-07   9.9989910e+04
   1.3556018e-07   9.9989673e+04
   1.3872098e-07   9.9989431e+04
   1.4195548e-07   9.9989183e+04
   1.4526539e-07   9.9988929e+04
   1.4865248e-07   9.9988669e+04
   1.5211855e-07   9.9988403e+04
   1.5566544e-07   9.9988131e+04
   1.5929502e-07   9.9987852e+04
   1.6300924e-07   9.9987567e+04
   1.6681005e-07   9.9987275e+04
   1.7069949e-07   9.9986977e+04
   1.7467962e-07   9.9986672e+04
   1.7875255e-07   9.9986359e+04
   1.8292045e-07   9.9986039e+04
   1.8718553e-07   9.9985712e+04
   1.9155006e-07   9.9985377e+04
   1.9601635e-07   9.9985034e+04
   2.0058678e-07   9.9984684e+04
   2.0526378e-07   9.9984325e+04
   2.1004982e-07   9.9983958e+04
   2.1494747e-07   9.9983582e+04
   2.1995931e-07   9.9983197e+04
   2.2508801e-07   9.9982804e+04
   2.3033629e-07   9.9982401e+04
   2.3570694e-07   9.9981989e+04
   2.4120282e-07   9.9981567e+04
   2.4682685e-07   9.9981136e+04
   2.5258200e-07   9.9980694e+04
   2.5847135e-07   9.9980242e+04
   2.6449802e-07   9.9979780e+04
   2.7066521e-07   9.9979307e+04
   2.7697619e-07   9.9978823e+04
   2.8343433e-07   9.9978327e+04
   2.9004305e-07   9.9977820e+04
   2.9680586e-07   9.9977301e+04
   3.0372636e-07   9.9976771e+04
   3.1080822e-07   9.9976227e+04
   3.1805520e-07   9.9975671e+04
   3.2547116e-07   9.9975102e+04
   3.3306003e-07   9.9974520e+04
   3.4082585e-07   9.9973925e+04
   3.4877275e-07   9.9973315e+04
   3.5690493e-07   9.9972691e+04
   3.6522674e-07   9.9972053e+04
   3.7374257e-07   9.9971399e+04
   3.8245697e-07   9.9970731e+04
   3.9137456e-07   9.9970047e+04
   4.0050008e-07   9.9969347e+04
   4.0983837e-07   9.9968631e+04
   4.1939440e-07   9.9967898e+04
   4.2917324e-07   9.9967148e+04
   4.3918009e-07   9.9966380e+04
   4.4942027e-07   9.9965595e+04
   4.5989921e-07   9.9964791e+04
   4.7062248e-07   9.9963969e+04
   4.8159579e-07   9.9963127e+04
   4.9282496e-07   9.9962266e+04
   5.0431595e-07   9.9961384e+04
   5.1607487e-07   9.9960483e+04
   5.2810797e-07   9.9959560e+04
   5.4042164e-07   9.9958615e+04
   5.5302243e-07   9.9957649e+04
   5.6591702e-07   9.9956660e+04
   5.7911226e-07   9.9955648e+04
   5.9261518e-07   9.9954613e+04
   6.0643294e-07   9.9953553e+04
   6.2057288e-07   9.9952469e+04
   6.3504252e-07   9.9951360e+04
   6.4984954e-07   9.9950224e+04
   6.6500180e-07   9.9949063e+04
   6.8050737e-07   9.9947874e+04
   6.9637447e-07   9.9946657e+04
   7.1261154e-07   9.9945412e+04
   7.2922721e-07   9.9944138e+04
   7.4623029e-07   9.9942835e+04
   7.6362983e-07   9.9941501e+04
   7.8143506e-07   9.9940136e+04
   7.9965545e-07   9.9938739e+04
   8.1830068e-07   9.9937310e+04
   8.3738065e-07   9.9935847e+04
   8.5690551e-07   9.9934351e+04
   8.7688561e-07   9.9932819e+04
   8.9733158e-07   9.9931252e+04
   9.1825428e-07   9.9929648e+04
   9.3966483e-07   9.9928008e+04
   9.6157460e-07   9.9926328e+04
   9.8399523e-07   9.9924610e+04
   1.0069386e-06   9.9922852e+04
   1.0304170e-06   9.9921053e+04
   1.0544428e-06   9.9919212e+04
   1.0790288e-06   9.9917328e+04
   1.1041881e-06   9.9915400e+04
   1.1299339e-06   9.9913427e+04
   1.1562801e-06   9.9911409e+04
   1.1832406e-06   9.9909343e+04
   1.2108298e-06   9.9907229e+04
   1.2390622e-06   9.9905067e+04
   1.2679528e-06   9.9902853e+04
   1.2975172e-06   9.9900589e+04
   1.3277708e-06   9.9898271e+04
   1.3587299e-06   9.9895900e+04
   1.3904108e-06   9.9893474e+04
   1.4228305e-06   9.9890991e+04
   1.4560060e-06   9.9888450e+04
   1.4899551e-06   9.9885850e+04
   1.5246957e-06   9.9883190e+04
   1.5602464e-06   9.9880468e+04
   1.5966260e-06   9.9877682e+04
   1.6338539e-06   9.9874832e+04
   1.6719498e-06   9.9871916e+04
   1.7109339e-06   9.9868931e+04
   1.7508270e-06   9.9865878e+04
   1.7916503e-06   9.9862753e+04
   1.8334255e-06   9.9859555e+04
   1.8761747e-06   9.9856284e+04
   1.9199207e-06   9.9852936e+04
   1.9646866e-06   9.9849510e+04
   2.0104964e-06   9.9846005e+04
   2.0573743e-06   9.9842418e+04
   2.1053452e-06   9.9838748e+04
   2.1544347e-06   9.9834992e+04
   2.2046687e-06   9.9831150e+04
   2.2560741e-06   9.9827218e+04
   2.3086780e-06   9.9823194e+04
   2.3625085e-06   9.9819078e+04
   2.4175941e-06   9.9814865e+04
   2.4739641e-06   9.9810555e+04
   2.5316485e-06   9.9806144e+04
   2.5906779e-06   9.9801631e+04
   2.6510836e-06   9.9797014e+04
   2.7128978e-06   9.9792289e+04
   2.7761533e-06   9.9787454e+04
   2.8408837e-06   9.9782507e+04
   2.9071234e-06   9.9777446e+04
   2.9749075e-06   9.9772267e+04
   3.0442722e-06   9.9766967e+04
   3.1152542e-06   9.9761545e+04
   3.1878913e-06   9.9755997e+04
   3.2622220e-06   9.9750320e+04
   3.3382859e-06   9.9744511e+04
   3.4161233e-06   9.9738568e+04
   3.4957756e-06   9.9732487e+04
   3.5772851e-06   9.9726265e+04
   3.6606951e-06   9.9719898e+04
   3.7460500e-06   9.9713384e+04
   3.8333951e-06   9.9706719e+04
   3.9227768e-06   9.9699899e+04
   4.0142425e-06   9.9692922e+04
   4.1078409e-06   9.9685782e+04
   4.2036217e-06   9.9678478e+04
   4.3016358e-06   9.9671004e+04
   4.4019352e-06   9.9663357e+04
   4.5045733e-06   9.9655533e+04
   4.6096045e-06   9.9647527e+04
   4.7170847e-06   9.9639337e+04
   4.8270710e-06   9.9630957e+04
   4.9396217e-06   9.9622383e+04
   5.0547968e-06   9.9613610e+04
   5.1726574e-06   9.9604635e+04
   5.2932661e-06   9.9595452e+04
   5.4166869e-06   9.9586056e+04
   5.5429855e-06   9.9576444e+04
   5.6722290e-06   9.9566609e+04
   5.8044859e-06   9.9556546e+04
   5.9398267e-06   9.9546252e+04
   6.0783231e-06   9.9535719e+04
   6.2200488e-06   9.9524944e+04
   6.3650791e-06   9.9513919e+04
   6.5134909e-06   9.9502640e+04
   6.6653633e-06   9.9491100e+04
   6.8207767e-06   9.9479294e+04
   6.9798139e-06   9.9467216e+04
   7.1425593e-06   9.9454860e+04
   7.3090993e-06   9.9442218e+04
   7.4795225e-06   9.9429285e+04
   7.6539194e-06   9.9416054e+04
   7.8323826e-06   9.9402518e+04
   8.0150070e-06   9.9388670e+04
   8.2018895e-06   9.9374503e+04
   8.3931295e-06   9.9360010e+04
   8.5888286e-06   9.9345184e+04
   8.7890907e-06   9.9330016e+04
   8.9940222e-06   9.9314500e+04
   9.2037320e-06   9.9298627e+04
   9.4183315e-06   9.9282388e+04
   9.6379348e-06   9.9265777e+04
   9.8626585e-06   9.9248785e+04
   1.0092622e-05   9.9231402e+04
   1.0327947e-05   9.9213620e+04
   1.0568760e-05   9.9195430e+04
   1.0815187e-05   9.9176823e+04
   1.1067360e-05   9.9157789e+04
   1.1325413e-05   9.9138319e+04
   1.1589483e-05   9.9118403e+04
   1.1859710e-05   9.9098031e+04
   1.2136238e-05   9.9077192e+04
   1.2419214e-05   9.9055877e+04
   1.2708787e-05   9.9034074e+04
   1.3005113e-05   9.9011773e+04
   1.3308347e-05   9.8988962e+04
   1.3618652e-05   9.8965630e+04
   1.3936193e-05   9.8941765e+04
   1.4261137e-05   9.8917356e+04
   1.4593658e-05   9.8892391e+04
   1.4933932e-05   9.8866856e+04
   1.5282140e-05   9.8840740e+04
   1.5638468e-05   9.8814028e+04
   1.6003103e-05   9.8786709e+04
   1.6376241e-05   9.8758769e+04
   1.6758079e-05   9.8730193e+04
   1.7148820e-05   9.8700969e+04
   1.7548671e-05   9.8671081e+04
   1.7957846e-05   9.8640514e+04
   1.8376562e-05   9.8609255e+04
   1.8805041e-05   9.8577287e+04
   1.9243510e-05   9.8544595e+04
   1.9692203e-05   9.8511164e+04
   2.0151357e-05   9.8476976e+04
   2.0621218e-05   9.8442016e+04
   2.1102034e-05   9.8406266e+04
   2.1594062e-05   9.8369710e+04
   2.2097561e-05   9.8332329e+04
   2.2612801e-05   9.8294107e+04
   2.3140054e-05   9.8255023e+04
   2.3679601e-05   9.8215061e+04
   2.4231728e-05   9.8174201e+04
   2.4796729e-05   9.8132422e+04
   2.5374904e-05   9.8089707e+04
   2.5966560e-05   9.8046034e+04
   2.6572011e-05   9.8001383e+04
   2.7191579e-05   9.7955733e+04
   2.7825594e-05   9.7909063e+04
   2.8474392e-05   9.7861350e+04
   2.9138317e-05   9.7812574e+04
   2.9817723e-05   9.7762710e+04
   3.0512970e-05   9.7711736e+04
   3.1224428e-05   9.7659628e+04
   3.1952475e-05   9.7606363e+04
   3.2697497e-05   9.7551916e+04
   3.3459891e-05   9.7496263e+04
   3.4240061e-05   9.7439378e+04
   3.5038422e-05   9.7381235e+04
   3.5855399e-05   9.7321808e+04
   3.6691424e-05   9.7261070e+04
   3.7546942e-05   9.7198995e+04
   3.8422408e-05   9.7135554e+04
   3.9318288e-05   9.7070720e+04
   4.0235055e-05   9.7004463e+04
   4.1173199e-05   9.6936755e+04
   4.2133217e-05   9.6867567e+04
   4.3115620e-05   9.6796867e+04
   4.4120929e-05   9.6724625e+04
   4.5149678e-05   9.6650811e+04
   4.6202414e-05   9.6575392e+04
   4.7279696e-05   9.6498336e+04
   4.8382097e-05   9.6419611e+04
   4.9510202e-05   9.6339183e+04
   5.0664610e-05   9.6257019e+04
   5.1845935e-05   9.6173084e+04
   5.3054805e-05   9.6087343e+04
   5.4291862e-05   9.5999761e+04
   5.5557762e-05   9.5910302e+04
   5.6853179e-05   9.5818930e+04
   5.8178801e-05   9.5725607e+04
   5.9535331e-05   9.5630296e+04
   6.0923492e-05   9.5532959e+04
   6.2344019e-05   9.5433558e+04
   6.3797668e-05   9.5332053e+04
   6.5285211e-05   9.5228404e+04
   6.6807439e-05   9.5122572e+04
   6.8365160e-05   9.5014515e+04
   6.9959202e-05   9.4904192e+04
   7.1590411e-05   9.4791563e+04
   7.3259654e-05   9.4676583e+04
   7.4967819e-05   9.4559211e+04
   7.6715812e-05   9.4439403e+04
   7.8504562e-05   9.4317116e+04
   8.0335020e-05   9.4192304e+04
   8.2208158e-05   9.4064924e+04
   8.4124970e-05   9.3934931e+04
   8.6086477e-05   9.3802277e+04
   8.8093719e-05   9.3666918e+04
   9.0147763e-05   9.3528806e+04
   9.2249701e-05   9.3387896e+04
   9.4400648e-05   9.3244138e+04
   9.6601748e-05   9.3097486e+04
   9.8854170e-05   9.2947892e+04
   1.0115911e-04   9.2795306e+04
   1.0351780e-04   9.2639681e+04
   1.0593148e-04   9.2480966e+04
   1.0840144e-04   9.2319112e+04
   1.1092899e-04   9.2154071e+04
   1.1351547e-04   9.1985790e+04
   1.1616226e-04   9.1814221e+04
   1.1887077e-04   9.1639313e+04
   1.2164243e-04   9.1461016e+04
   1.2447871e-04   9.1279278e+04
   1.2738113e-04   9.1094048e+04
   1.3035122e-04   9.0905276e+04
   1.3339057e-04   9.0712911e+04
   1.3650078e-04   9.0516902e+04
   1.3968351e-04   9.0317198e+04
   1.4294045e-04   9.0113747e+04
   1.4627334e-04   8.9906499e+04
   1.4968393e-04   8.9695404e+04
   1.5317405e-04   8.9480410e+04
   1.5674554e-04   8.9261468e+04
   1.6040031e-04   8.9038527e+04
   1.6414030e-04   8.8811538e+04
   1.6796749e-04   8.8580452e+04
   1.7188391e-04   8.8345219e+04
   1.7589166e-04   8.8105791e+04
   1.7999285e-04   8.7862120e+04
   1.8418967e-04   8.7614159e+04
   1.8848434e-04   8.7361861e+04
   1.9287915e-04   8.7105181e+04
   1.9737643e-04   8.6844072e+04
   2.0197858e-04   8.6578491e+04
   2.0668802e-04   8.6308394e+04
   2.1150728e-04   8.6033738e+04
   2.1643891e-04   8.5754482e+04
   2.2148552e-04   8.5470585e+04
   2.2664981e-04   8.5182009e+04
   2.3193451e-04   8.4888714e+04
   2.3734243e-04   8.4590664e+04
   2.4287644e-04   8.4287823e+04
   2.4853949e-04   8.3980159e+04
   2.5433458e-04   8.3667637e+04
   2.6026479e-04   8.3350227e+04
   2.6633327e-04   8.3027899e+04
   2.7254325e-04   8.2700627e+04
   2.7889803e-04   8.2368384e+04
   2.8540098e-04   8.2031147e+04
   2.9205555e-04   8.1688894e+04
   2.9886529e-04   8.1341605e+04
   3.0583380e-04   8.0989261e+04
   3.1296480e-04   8.0631849e+04
   3.2026207e-04   8.0269354e+04
   3.2772948e-04   7.9901766e+04
   3.3537102e-04   7.9529076e+04
   3.4319072e-04   7.9151279e+04
   3.5119275e-04   7.8768370e+04
   3.5938137e-04   7.8380350e+04
   3.6776091e-04   7.7987221e+04
   3.7633584e-04   7.7588987e+04
   3.8511070e-04   7.7185657e+04
   3.9409016e-04   7.6777240e+04
   4.0327900e-04   7.6363751e+04
   4.1268208e-04   7.5945206e+04
   4.2230442e-04   7.5521626e+04
   4.3215111e-04   7.5093033e+04
   4.4222740e-04   7.4659455e+04
   4.5253863e-04   7.4220919e+04
   4.6309028e-04   7.3777460e+04
   4.7388796e-04   7.3329115e+04
   4.8493741e-04   7.2875921e+04
   4.9624449e-04   7.2417924e+04
   5.0781521e-04   7.1955170e+04
   5.1965572e-04   7.1487708e+04
   5.3177232e-04   7.1015594e+04
   5.4417143e-04   7.0538884e+04
   5.5685964e-04   7.0057640e+04
   5.6984371e-04   6.9571926e+04
   5.8313051e-04   6.9081810e+04
   5.9672712e-04   6.8587364e+04
   6.1064075e-04   6.8088664e+04
   6.2487881e-04   6.7585788e+04
   6.3944884e-04   6.7078820e+04
   6.5435860e-04   6.6567845e+04
   6.6961601e-04   6.6052953e+04
   6.8522916e-04   6.5534237e+04
   7.0120636e-04   6.5011794e+04
   7.1755609e-04   6.4485723e+04
   7.3428704e-04   6.3956129e+04
   7.5140811e-04   6.3423116e+04
   7.6892837e-04   6.2886796e+04
   7.8685715e-04   6.2347280e+04
   8.0520397e-04   6.1804686e+04
   8.2397857e-04   6.1259131e+04
   8.4319093e-04   6.0710738e+04
   8.6285126e-04   6.0159631e+04
   8.8297000e-04   5.9605938e+04
   9.0355783e-04   5.9049788e+04
   9.2462571e-04   5.8491314e+04
   9.4618482e-04   5.7930649e+04
   9.6824661e-04   5.7367932e+04
   9.9082281e-04   5.6803301e+04
   1.0139254e-03   5.6236898e+04
   1.0375667e-03   5.5668863e+04
   1.0617592e-03   5.5099344e+04
   1.0865158e-03   5.4528484e+04
   1.1118496e-03   5.3956432e+04
