t(s)	A(µM)	AB(µM)	ABC(1/µm^2)	AC(1/µm^2)	(Var=B) B(µM)	BAC(1/µm^2)	BC(1/µm^2)	C(1/µm^2)	CABC(1/µm^2)
0.0	1.0	0.0	0.0	0.0	1.0	0.0	0.0	16999.0	0.0
5.714502540501995E-14	0.999999999999352	2.857251270243444E-15	2.2759571968048873E-22	1.9428165737178323E-9	0.999999999999352	2.2759571968048873E-22	1.9428165737178323E-9	16998.999999996115	7.434593558443402E-31
5.715073990756045E-10	0.9999999935185349	2.8575369198316783E-11	2.2761480490283298E-14	1.943010835012603E-5	0.9999999935185349	2.2761480490283298E-14	1.943010835012603E-5	16998.999961139783	7.435227386460212E-19
6.2860099395775994E-9	0.9999999287103685	3.1430043830959323E-10	1.7674931402206703E-12	2.1371175011057646E-4	0.9999999287103685	1.7674931402206703E-12	2.1371175011057646E-4	16998.999572576497	3.907211945875364E-16
3.326265566443014E-8	0.9999996227683362	1.6631313970654885E-9	4.174325640576235E-11	0.0011308633936192786	0.9999996227683362	4.174325640576235E-11	0.0011308633936192786	16998.99773827313	4.323656876748936E-14
9.88936783765195E-8	0.9999988784476602	4.9446723163479166E-9	3.491219497956109E-10	0.0033621841497984356	0.9999988784476602	3.491219497956109E-10	0.0033621841497984356	16998.993275631	9.354204745403391E-13
2.273552569945551E-7	0.9999974215683947	1.1367702538300458E-8	1.8121734658327399E-9	0.007729607769163367	0.9999974215683947	1.8121734658327399E-9	0.007729607769163367	16998.984540780817	1.0224399979060551E-11
4.602254965728607E-7	0.9999947806001981	2.3011029070085626E-8	7.365622909480951E-9	0.015646680182263065	0.9999947806001981	7.365622909480951E-9	0.015646680182263065	16998.968706624742	7.994218561166982E-11
8.707590628864379E-7	0.9999901247838046	4.353707515150507E-8	2.6198742220387556E-8	0.029603829928504702	0.9999901247838046	2.6198742220387556E-8	0.029603829928504702	16998.9407922867	5.225762082674031E-10
1.5634576950456503E-6	0.9999822690264877	7.817005635599657E-8	8.378430229212994E-8	0.053153672191983	0.9999822690264877	8.378430229212994E-8	0.053153672191983	16998.893692482154	2.9413040593673244E-9
2.2561563272048627E-6	0.9999744133474211	1.1280192788965997E-7	1.7333128023998806E-7	0.07670321523585653	0.9999744133474211	1.7333128023998806E-7	0.07670321523585653	16998.84659320609	8.38077447876243E-9
2.948854959364075E-6	0.9999665577466119	1.474326896835746E-7	2.942477060365354E-7	0.10025245900360108	0.9999665577466119	2.942477060365354E-7	0.10025245900360108	16998.799494457347	1.8060492756719213E-8
4.360368567007654E-6	0.9999505506128513	2.1799643869396498E-7	6.35001619575813E-7	0.14823788118265274	0.9999505506128513	6.35001619575813E-7	0.14823788118265274	16998.70352285458	5.650177169351998E-8
5.771882174651232E-6	0.9999345438040368	2.885555801418249E-7	1.0987566248691424E-6	0.1962220603086464	0.9999345438040368	1.0987566248691424E-6	0.1962220603086464	16998.60755342686	1.2743199295482056E-7
7.18339578229481E-6	0.9999185373201618	3.5911011437206926E-7	1.6807803449174022E-6	0.24420499615038618	0.9999185373201618	1.6807803449174022E-6	0.24420499615038618	16998.51158616477	2.405655114506212E-7
8.594909389938388E-6	0.9999025311612183	4.2966004176102563E-7	2.376298391789297E-6	0.29218668847102797	0.9999025311612183	2.376298391789297E-6	0.29218668847102797	16998.415621058757	4.0571120037253076E-7
1.1972581914192439E-5	0.9998642306438438	5.984633429484498E-7	4.475575907947399E-6	0.40699912489787105	0.9998642306438438	4.475575907947399E-6	0.40699912489787105	16998.18599066837	1.0651519419956439E-6
1.5350254438446492E-5	0.9998259319869254	7.6724027160183E-7	7.1424564686629675E-6	0.5218044362051097	0.9998259319869254	7.1424564686629675E-6	0.5218044362051097	16997.956372458342	2.191950328242172E-6
1.8727926962700543E-5	0.9997876351903525	9.359908325217489E-7	1.0324604106199961E-5	0.6366026192390368	0.9997876351903525	1.0324604106199961E-5	0.6366026192390368	16997.726766323984	3.8942510717388094E-6
2.2105599486954594E-5	0.9997493402540146	1.1047150303885133E-6	1.3974908859951883E-5	0.7513936708540139	0.9997493402540146	1.3974908859951883E-5	0.7513936708540139	16997.497172170108	6.269737956920866E-6
2.5483272011208645E-5	0.9997110471778017	1.2734128697758252E-6	1.8050717906387978E-5	0.8661775879049081	0.9997110471778017	1.8050717906387978E-5	0.8661775879049081	16997.267589910454	9.407179616343786E-6
2.8860944535462696E-5	0.9996727559616035	1.4420843551634103E-6	2.2513281428487115E-5	0.9809543672456026	0.9996727559616035	2.2513281428487115E-5	0.9809543672456026	16997.038019466767	1.3387539479924177E-5
3.223861705971675E-5	0.9996344666053105	1.6107294909472076E-6	2.7327357196528338E-5	1.095724005729444	0.9996344666053105	2.7327357196528338E-5	1.095724005729444	16996.80846076792	1.828476621334745E-5
3.56162895839708E-5	0.9995961791088128	1.7793482814474934E-6	3.2460893604292455E-5	1.210486500209816	0.9995961791088128	3.2460893604292455E-5	1.210486500209816	16996.578913749207	2.4166427072222156E-5
3.899396210822485E-5	0.9995578934720009	1.9479407309157156E-6	3.788474841699159E-5	1.3252418475404384	0.9995578934720009	3.788474841699159E-5	1.3252418475404384	16996.34937835173	3.109427010311121E-5
4.2371634632478904E-5	0.999519609694765	2.1165068435405776E-6	4.3572429479171216E-5	1.439990044575469	0.999519609694765	4.3572429479171216E-5	1.439990044575469	16996.11985452188	3.912474262913836E-5
4.5749307156732956E-5	0.999481327776996	2.285046623453604E-6	4.9499855364668345E-5	1.5547310881695273	0.999481327776996	4.9499855364668345E-5	1.5547310881695273	16995.890342210867	4.8309469933363274E-5
4.912697968098701E-5	0.9994430477185845	2.4535600747342585E-6	5.5645136137620565E-5	1.6694649751777035	0.9994430477185845	5.5645136137620565E-5	1.6694649751777035	16995.66084137428	5.869569373578401E-5
5.250465220524106E-5	0.999404769519421	2.62204720141463E-6	6.198837368015678E-5	1.784191702455571	0.999404769519421	6.198837368015678E-5	1.784191702455571	16995.431351971692	7.032667153283481E-5
5.588232472949511E-5	0.9993664931793966	2.7905080074837E-6	6.851148025994876E-5	1.898911266859202	0.9993664931793966	6.851148025994876E-5	1.898911266859202	16995.201873966296	8.324203945233624E-5
5.925999725374916E-5	0.999328218698402	2.9589424968912254E-6	7.51980137264932E-5	2.0136236652451873	0.999328218698402	7.51980137264932E-5	2.0136236652451873	16994.97240732458	9.747814184927417E-5
6.263766977800322E-5	0.9992899460763283	3.127350673551263E-6	8.203302776799243E-5	2.1283288944706507	0.9992899460763283	8.203302776799243E-5	2.1283288944706507	16994.742952016022	1.1306833078072308E-4
6.782223554213478E-5	0.9992312030484072	3.3857979864730623E-6	9.278276715764689E-5	2.304381979845344	0.9992312030484072	9.278276715764689E-5	2.304381979845344	16994.39077107878	1.3970195261461848E-4
7.300680130626632E-5	0.9991724643995982	3.6441833275459495E-6	1.0380695958510478E-4	2.4804181553525733	0.9991724643995982	1.0380695958510478E-4	2.4804181553525733	16994.038616689148	1.6969732051247578E-4
7.819136707039786E-5	0.9991137301295078	3.902506710540847E-6	1.1506766791854378E-4	2.656437409633885	0.9991137301295078	1.1506766791854378E-4	2.656437409633885	16993.68648876882	2.0314281098787192E-4
8.337593283452941E-5	0.9990550002377424	4.16076814909877E-6	1.2653250495815347E-4	2.832439731334296	0.9990550002377424	1.2653250495815347E-4	2.832439731334296	16993.334387250277	2.4011569681947918E-4
8.856049859866095E-5	0.998996274723909	4.418967656747194E-6	1.3817361223880512E-4	3.0084251091022898	0.998996274723909	1.3817361223880512E-4	3.0084251091022898	16992.982312075408	2.8068418950380567E-4
9.37450643627925E-5	0.9989375535876145	4.677105246920015E-6	1.4996681405477562E-4	3.184393531589782	0.9989375535876145	1.4996681405477562E-4	3.184393531589782	16992.630263193823	3.249091312771696E-4
9.892963012692404E-5	0.9988788368284662	4.935180932973624E-6	1.6189110990797026E-4	3.3603449874521623	0.9988788368284662	1.6189110990797026E-4	3.3603449874521623	16992.278240561485	3.7284501019481164E-4
1.0411419589105559E-4	0.9988201244460716	5.193194728197311E-6	1.7392832620138131E-4	3.5362794653483682	0.9988201244460716	1.7392832620138131E-4	3.5362794653483682	16991.926244139828	4.2454065667583236E-4
1.0929876165518713E-4	0.9987614164400381	5.451146645820387E-6	1.8606278291823417E-4	3.712196953940951	0.9987614164400381	1.8606278291823417E-4	3.712196953940951	16991.574273895145	4.8003991008966094E-4
1.2068215653564487E-4	0.9986325306555836	6.017296935357544E-6	2.1298242427647123E-4	4.098387240797001	0.9986325306555836	2.1298242427647123E-4	4.098387240797001	16990.801568703122	6.154294626333361E-4
1.3206555141610262E-4	0.9985036659626353	6.583149127759065E-6	2.4019271904366404E-4	4.484495451138082	0.9985036659626353	2.4019271904366404E-4	4.484495451138082	16990.028989313698	7.697037941653799E-4
1.4039903917223643E-4	0.9984093408373346	6.997205907259551E-6	2.602502258964766E-4	4.767103138434113	0.9984093408373346	2.602502258964766E-4	4.767103138434113	16989.463483658605	8.947866271866614E-4
1.4873252692837024E-4	0.9983150270118055	7.411103054649155E-6	2.803958079707983E-4	5.049666727074308	0.9983150270118055	2.803958079707983E-4	5.049666727074308	16988.89804526706	0.0010302482154660054
1.5706601468450405E-4	0.9982207244844221	7.824840623710635E-6	3.0060885665872156E-4	5.332186170105654	0.9982207244844221	3.0060885665872156E-4	5.332186170105654	16988.33267408924	0.001176181463340489
1.6539950244063786E-4	0.9981264332535591	8.238418668110236E-6	3.2087356339994725E-4	5.614661420600666	0.9981264332535591	3.2087356339994725E-4	5.614661420600666	16987.76737008368	0.0013326696481068714
1.7373299019677167E-4	0.9980321533175913	8.651837241408488E-6	3.4117825061388975E-4	5.8970924316574695	0.9980321533175913	3.4117825061388975E-4	5.8970924316574695	16987.202133216306	0.0014997877580859838
1.8206647795290549E-4	0.9979378846748947	9.06509639707394E-6	3.615137883564227E-4	6.17947915640004	0.9979378846748947	3.615137883564227E-4	6.17947915640004	16986.63696345933	0.0016776056591624035
1.903999657090393E-4	0.9978436273238454	9.478196188506831E-6	3.818725768295376E-4	6.461821547978362	0.9978436273238454	3.818725768295376E-4	6.461821547978362	16986.071860789183	0.001866190129656804
1.987334534651731E-4	0.9977493812628199	9.89113666906196E-6	4.0224840809746935E-4	6.74411955956846	0.9977493812628199	4.0224840809746935E-4	6.74411955956846	16985.50682518461	0.0020656051368524776
2.13132176095216E-4	0.9975865681344412	1.060424602812742E-5	4.3748081779040583E-4	7.231773491209582	0.9975865681344412	4.3748081779040583E-4	7.231773491209582	16984.530706352634	0.0024358580250610387
2.275308987252589E-4	0.9974237886974509	1.1316880223320018E-5	4.7273252854606457E-4	7.719294552435225	0.9974237886974509	4.7273252854606457E-4	7.719294552435225	16983.554787592264	0.002838926320110686
2.419296213553018E-4	0.9972610429434849	1.2029039529047375E-5	5.079919872313334E-4	8.206682502273612	0.9972610429434849	5.079919872313334E-4	8.206682502273612	16982.579068829175	0.003275098457958116
2.563283439853447E-4	0.9970983308641835	1.2740724219428863E-5	5.432514646421333E-4	8.6939370999874	0.9970983308641835	5.432514646421333E-4	8.6939370999874	16981.60354999967	0.003744654981205965
2.7072706661538764E-4	0.9969356524511905	1.3451934568348612E-5	5.785056033757684E-4	9.181058105074376	0.9969356524511905	5.785056033757684E-4	9.181058105074376	16980.628231046187	0.004247871442757044
2.8512578924543057E-4	0.996773007696154	1.4162670849497719E-5	6.137507269608697E-4	9.668045277268007	0.996773007696154	6.137507269608697E-4	9.668045277268007	16979.653111913707	0.004785019787038622
2.995245118754735E-4	0.9966103965907253	1.4872933336388576E-5	6.489844045097929E-4	10.154898376537938	0.9966103965907253	6.489844045097929E-4	10.154898376537938	16978.678192548556	0.00535636922020778
3.1392323450551643E-4	0.9964478191265599	1.5582722302354512E-5	6.842050669833359E-4	10.641617163090482	0.9964478191265599	6.842050669833359E-4	10.641617163090482	16977.703472898454	0.0059621869771306875
3.2832195713555936E-4	0.996285275295317	1.6292038020550022E-5	7.194116911728594E-4	11.128201397369132	0.996285275295317	7.194116911728594E-4	11.128201397369132	16976.72895291249	0.006602738952927406
3.5292396537070904E-4	0.9960076267488247	1.7502897815781328E-5	7.795321741490016E-4	11.959279033247302	0.9960076267488247	7.795321741490016E-4	11.959279033247302	16975.064326207703	0.007778334803176428
3.775259736058587E-4	0.9957300763242944	1.8712378170190807E-5	8.396076229682751E-4	12.789961966889914	0.9957300763242944	8.396076229682751E-4	12.789961966889914	16973.400282010265	0.009057424367520456
4.021279818410084E-4	0.9954526239801975	1.9920480442903122E-5	8.99637161922745E-4	13.620249008184839	0.9954526239801975	8.99637161922745E-4	13.620249008184839	16971.736820076505	0.010441320462888341
4.267299900761581E-4	0.9951752696750372	2.1127205991652903E-5	9.596202973976801E-4	14.450138969064055	0.9951752696750372	9.596202973976801E-4	14.450138969064055	16970.073940163496	0.011931333005815996
4.5133199831130777E-4	0.9948980133673487	2.2332556172789876E-5	0.0010195566169352045	15.27963066351115	0.9948980133673487	0.0010195566169352045	15.27963066351115	16968.41164202876	0.013528769607003773
4.7593400654645745E-4	0.9946208550156991	2.353653234127736E-5	0.0010794458856462146	16.10872290756777	0.9946208550156991	0.0010794458856462146	16.10872290756777	16966.749925430533	0.015234935372198598
5.214965811790672E-4	0.9941078201844141	2.5762655273028795E-5	0.0011902355716457706	17.643131207478298	0.9941078201844141	0.0011902355716457706	17.643131207478298	16963.673984540375	0.018686290724581767
5.67059155811677E-4	0.993595120923184	2.7984078771734166E-5	0.0013008637652272806	19.176157910706017	0.993595120923184	0.0013008637652272806	19.176157910706017	16960.600035876967	0.022523290845083716
6.126217304442868E-4	0.9930827569696866	3.0200811406741485E-5	0.0014113304862107387	20.707795553111684	0.9930827569696866	0.0014113304862107387	20.707795553111684	16957.528077912415	0.02675416390133756
6.581843050768966E-4	0.9925707280619703	3.241286173127176E-5	0.0015216355176861387	22.23803669521417	0.9925707280619703	0.0015216355176861384	22.23803669521417	16954.4581091203	0.031387112808474754
7.037468797095064E-4	0.9920590339384532	3.462023828244799E-5	0.001631778639219915	23.766873922343656	0.9920590339384532	0.0016317786392199148	23.766873922343656	16951.390127976214	0.03643031461344022
7.721717192197544E-4	0.9912912116664596	3.792646497526993E-5	0.0017968847723453137	26.060193408505324	0.9912912116664596	0.0017968847723453137	26.060193408505324	16946.786434163023	0.04479262895123526
8.405965587300025E-4	0.9905241429727696	4.1222198750506185E-5	0.0019616254137750184	28.350305013229487	0.9905241429727696	0.0019616254137750184	28.350305013229487	16942.187214584384	0.054126072931465034
9.090213982402505E-4	0.98975782697606	4.4507468319836727E-5	0.0021260003422234274	30.637183942553857	0.98975782697606	0.0021260003422234274	30.637183942553857	16937.59246410529	0.06445800823303488
9.774462377504986E-4	0.9889922627968545	4.7782302313898135E-5	0.0022900092867549826	32.92080553230766	0.9889922627968545	0.0022900092867549826	32.92080553230766	16933.002177601305	0.07581566152510462
0.0010924203259165923	0.9877075777603984	5.3261577249037894E-5	0.0025647682598425358	36.750566481051024	0.9877075777603984	0.002564768259842536	36.750566481051024	16925.299168644764	0.09728443206750685
0.001207394414082686	0.986425008776098	5.871160389010622E-5	0.0028384920574189053	40.57094589919848	0.986425008776098	0.0028384920574189058	40.57094589919848	16917.608724646616	0.12185328918588852
0.0013223685022487797	0.9851445517063557	6.4132516531385E-5	0.0031111796331085837	44.38182930124771	0.9851445517063557	0.0031111796331085837	44.38182930124771	16909.930821496313	0.14964877470452428
0.0014373425904148733	0.9838662024278899	6.952444883179559E-5	0.003382830000738765	48.1831032799061	0.9838662024278899	0.0033828300007387653	48.1831032799061	16902.26543516581	0.18079631092583615
0.001552316678580967	0.9825899568315963	7.48875338184958E-5	0.003653442238554847	51.974655520296714	0.9825899568315963	0.0036534422385548476	51.974655520296714	16894.612541708764	0.21542018682036043
0.001746057816787435	0.9804441220073022	8.385989552101331E-5	0.004107096024529597	58.341442219939175	0.9804441220073022	0.004107096024529598	58.341442219939175	16881.74496028089	0.2819705473334882
0.0019397989549939031	0.9783042294876693	9.27513500886602E-5	0.004557795980210972	64.67978369592825	0.9783042294876693	0.004557795980210973	64.67978369592825	16868.912671112343	0.3593229556652707
0.002133540093200371	0.976170259878588	1.0156252201355937E-4	0.005005538994896229	70.98916418323297	0.976170259878588	0.005005538994896229	70.98916418323297	16856.115561163602	0.44804969971663605
0.0023272812314068395	0.9740421938949448	1.1029403083200554E-4	0.005450322499436192	77.26907723412587	0.9740421938949448	0.005450322499436192	77.26907723412587	16843.353518022785	0.5487134357293973
0.0025210223696133073	0.971920012358963	1.1894649116738917E-4	0.005892144465230957	83.51902586436904	0.971920012358963	0.005892144465230957	83.51902586436904	16830.626429895885	0.6618670469702251
0.002714763507819775	0.9698036961985365	1.2752051277324658E-4	0.00633100340256649	89.73852269496297	0.9698036961985365	0.00633100340256649	89.73852269496297	16817.934185597023	0.7880535068696036
0.002908504646026243	0.9676932264455795	1.3601670057592752E-4	0.006766898357648841	95.92709008708543	0.9676932264455795	0.006766898357648841	95.92709008708543	16805.27667453874	0.9278057489323578
0.003102245784232711	0.9655885842344032	1.44435654716512E-4	0.007199828910079009	102.08426026799668	0.9655885842344032	0.007199828910079009	102.08426026799668	16792.653786722483	1.0816465455987985
0.0032959869224391787	0.9634897508001148	1.527779705921329E-4	0.007629795170562405	108.20957544838048	0.9634897508001148	0.0076297951705624045	108.20957544838048	16780.06541272919	1.2500883956025908
0.0034897280606456466	0.9613967074770315	1.6104423889697403E-4	0.008056797777690939	114.30258793248396	0.9613967074770315	0.008056797777690939	114.30258793248396	16767.511443709987	1.4336334184919337
0.0036834691988521144	0.9593094356971059	1.6923504566298528E-4	0.008480837894273062	120.36286022139615	0.9593094356971059	0.008480837894273063	120.36286022139615	16754.99177137696	1.6327732559757964
0.0038772103370585823	0.9572279169883691	1.7735097230020007E-4	0.00890191720378809	126.38996510892025	0.9572279169883691	0.00890191720378809	126.38996510892025	16742.506287993994	1.8479889806248566
0.00407095147526505	0.9551521329733944	1.853925956365909E-4	0.009320037906478746	132.38348576964307	0.9551521329733944	0.009320037906478744	132.38348576964307	16730.05488636776	2.0797510123163785
0.004264692613471518	0.9530820653677805	1.9336048795749725E-4	0.009735202714890003	138.34301583932182	0.9530820653677805	0.009735202714890003	138.34301583932182	16717.637459838807	2.3285190423050754
0.004458433751677986	0.9510176959786527	2.0125521704467808E-4	0.010147414849250398	144.26815948786404	0.9510176959786527	0.010147414849250398	144.26815948786404	16705.25390227277	2.5947419646474223
0.004652174889884454	0.9489590067031825	2.0907734621499795E-4	0.010556678032706364	150.15853148499284	0.9489590067031825	0.010556678032706362	150.15853148499284	16692.904108051665	2.878857814886932
0.0048459160280909215	0.9469059795271269	2.1682743435872924E-4	0.010962996486167205	156.0137572585426	0.9469059795271269	0.010962996486167203	156.0137572585426	16680.58797206533	3.181293716052058
0.005039657166297389	0.9448585965233876	2.245060359774636E-4	0.011366374922852793	161.83347294536972	0.9448585965233876	0.011366374922852793	161.83347294536972	16668.305389702946	3.50246583198004
0.005233398304503857	0.9428168398505907	2.3211370122164327E-4	0.011766818542684347	167.61732543496115	0.9428168398505907	0.011766818542684347	167.61732543496115	16656.056256844717	3.842779327883673
